STAGE 1 Parameters:
Fuel mass (kg): 5600
Dry mass (kg): 1200
Fuel fract: 0.8235294117647058
Isp @ SL: 226
Burn time (sec): 137.90398151982043
Thrust (N): 90030.294
dM/dt: 40.60796460176991

TIME,HEIGHT,VELOCITY,MASS,THRUST,DRAG,GAMMA,RANGE
0.000,0.001,0.000,7300.000,0.000,0.000,1.571,0.000,
0.010,0.001,0.026,7299.594,90390.415,0.000,1.571,0.000,
0.020,0.002,0.052,7299.188,90390.415,0.000,1.571,0.000,
0.030,0.002,0.077,7298.782,90390.415,0.000,1.571,0.000,
0.040,0.003,0.103,7298.376,90390.415,0.000,1.571,0.000,
0.050,0.004,0.129,7297.970,90390.415,0.001,1.571,0.000,
0.060,0.006,0.155,7297.564,90390.415,0.001,1.571,0.000,
0.070,0.007,0.180,7297.157,90390.415,0.001,1.571,0.000,
0.080,0.009,0.206,7296.751,90390.415,0.002,1.571,0.000,
0.090,0.011,0.232,7296.345,90390.415,0.002,1.571,0.000,
0.100,0.014,0.258,7295.939,90390.415,0.003,1.571,0.000,
0.110,0.017,0.284,7295.533,90390.415,0.004,1.571,0.000,
0.120,0.020,0.310,7295.127,90390.415,0.004,1.571,0.000,
0.130,0.023,0.335,7294.721,90390.415,0.005,1.571,0.000,
0.140,0.026,0.361,7294.315,90390.415,0.006,1.571,0.000,
0.150,0.030,0.387,7293.909,90390.415,0.007,1.571,0.000,
0.160,0.034,0.413,7293.503,90390.415,0.008,1.571,0.000,
0.170,0.038,0.439,7293.097,90390.415,0.010,1.571,0.000,
0.180,0.043,0.465,7292.691,90390.415,0.011,1.571,0.000,
0.190,0.048,0.491,7292.284,90390.415,0.012,1.571,0.000,
0.200,0.053,0.517,7291.878,90390.415,0.013,1.571,0.000,
0.210,0.058,0.542,7291.472,90390.415,0.015,1.571,0.000,
0.220,0.063,0.568,7291.066,90390.415,0.016,1.571,0.000,
0.230,0.069,0.594,7290.660,90390.415,0.018,1.571,0.000,
0.240,0.075,0.620,7290.254,90390.415,0.020,1.571,0.000,
0.250,0.082,0.646,7289.848,90390.415,0.021,1.571,0.000,
0.260,0.088,0.672,7289.442,90390.415,0.023,1.571,0.000,
0.270,0.095,0.698,7289.036,90390.415,0.025,1.571,0.000,
0.280,0.102,0.724,7288.630,90390.415,0.027,1.571,0.000,
0.290,0.110,0.750,7288.224,90390.415,0.029,1.571,0.000,
0.300,0.117,0.776,7287.818,90390.415,0.031,1.571,0.000,
0.310,0.125,0.802,7287.412,90390.415,0.034,1.571,0.000,
0.320,0.133,0.828,7287.005,90390.414,0.036,1.571,0.000,
0.330,0.142,0.854,7286.599,90390.414,0.038,1.571,0.000,
0.340,0.150,0.880,7286.193,90390.414,0.041,1.571,0.000,
0.350,0.159,0.906,7285.787,90390.414,0.043,1.571,0.000,
0.360,0.168,0.932,7285.381,90390.414,0.046,1.571,0.000,
0.370,0.178,0.958,7284.975,90390.414,0.049,1.571,0.000,
0.380,0.188,0.984,7284.569,90390.414,0.051,1.571,0.000,
0.390,0.198,1.010,7284.163,90390.414,0.054,1.571,0.000,
0.400,0.208,1.036,7283.757,90390.414,0.057,1.571,0.000,
0.410,0.218,1.062,7283.351,90390.414,0.060,1.571,0.000,
0.420,0.229,1.088,7282.945,90390.414,0.063,1.571,0.000,
0.430,0.240,1.114,7282.539,90390.414,0.066,1.571,0.000,
0.440,0.251,1.140,7282.132,90390.414,0.069,1.571,0.000,
0.450,0.263,1.166,7281.726,90390.414,0.073,1.571,0.000,
0.460,0.275,1.192,7281.320,90390.414,0.076,1.571,0.000,
0.470,0.287,1.218,7280.914,90390.414,0.079,1.571,0.000,
0.480,0.299,1.244,7280.508,90390.414,0.083,1.571,0.000,
0.490,0.312,1.270,7280.102,90390.414,0.087,1.571,0.000,
0.500,0.324,1.296,7279.696,90390.413,0.090,1.571,0.000,
0.510,0.337,1.323,7279.290,90390.413,0.094,1.571,0.000,
0.520,0.351,1.349,7278.884,90390.413,0.098,1.571,0.000,
0.530,0.364,1.375,7278.478,90390.413,0.102,1.571,0.000,
0.540,0.378,1.401,7278.072,90390.413,0.106,1.571,0.000,
0.550,0.392,1.427,7277.666,90390.413,0.110,1.571,0.000,
0.560,0.407,1.453,7277.260,90390.413,0.114,1.571,0.000,
0.570,0.422,1.479,7276.853,90390.413,0.118,1.571,0.000,
0.580,0.436,1.505,7276.447,90390.413,0.122,1.571,0.000,
0.590,0.452,1.532,7276.041,90390.413,0.127,1.571,0.000,
0.600,0.467,1.558,7275.635,90390.413,0.131,1.571,0.000,
0.610,0.483,1.584,7275.229,90390.413,0.136,1.571,0.000,
0.620,0.499,1.610,7274.823,90390.412,0.140,1.571,0.000,
0.630,0.515,1.636,7274.417,90390.412,0.145,1.571,0.000,
0.640,0.532,1.663,7274.011,90390.412,0.150,1.571,0.000,
0.650,0.548,1.689,7273.605,90390.412,0.154,1.571,0.000,
0.660,0.565,1.715,7273.199,90390.412,0.159,1.571,0.000,
0.670,0.583,1.741,7272.793,90390.412,0.164,1.571,0.000,
0.680,0.600,1.767,7272.387,90390.412,0.169,1.571,0.000,
0.690,0.618,1.794,7271.981,90390.412,0.175,1.571,0.000,
0.700,0.636,1.820,7271.574,90390.412,0.180,1.571,0.000,
0.710,0.654,1.846,7271.168,90390.412,0.185,1.571,0.000,
0.720,0.673,1.872,7270.762,90390.412,0.190,1.571,0.000,
0.730,0.692,1.899,7270.356,90390.411,0.196,1.571,0.000,
0.740,0.711,1.925,7269.950,90390.411,0.201,1.571,0.000,
0.750,0.730,1.951,7269.544,90390.411,0.207,1.571,0.000,
0.760,0.750,1.977,7269.138,90390.411,0.213,1.571,0.000,
0.770,0.770,2.004,7268.732,90390.411,0.218,1.571,0.000,
0.780,0.790,2.030,7268.326,90390.411,0.224,1.571,0.000,
0.790,0.810,2.056,7267.920,90390.411,0.230,1.571,0.000,
0.800,0.831,2.083,7267.514,90390.411,0.236,1.571,0.000,
0.810,0.852,2.109,7267.108,90390.411,0.242,1.571,0.000,
0.820,0.873,2.135,7266.701,90390.410,0.249,1.571,0.000,
0.830,0.895,2.162,7266.295,90390.410,0.255,1.571,0.000,
0.840,0.917,2.188,7265.889,90390.410,0.261,1.571,0.000,
0.850,0.939,2.214,7265.483,90390.410,0.267,1.571,0.000,
0.860,0.961,2.241,7265.077,90390.410,0.274,1.571,0.000,
0.870,0.983,2.267,7264.671,90390.410,0.280,1.571,0.000,
0.880,1.006,2.293,7264.265,90390.410,0.287,1.571,0.000,
0.890,1.029,2.320,7263.859,90390.410,0.294,1.571,0.000,
0.900,1.053,2.346,7263.453,90390.409,0.301,1.571,0.000,
0.910,1.076,2.372,7263.047,90390.409,0.308,1.571,0.000,
0.920,1.100,2.399,7262.641,90390.409,0.314,1.571,0.000,
0.930,1.124,2.425,7262.235,90390.409,0.322,1.571,0.000,
0.940,1.148,2.452,7261.829,90390.409,0.329,1.571,0.000,
0.950,1.173,2.478,7261.422,90390.409,0.336,1.571,0.000,
0.960,1.198,2.504,7261.016,90390.409,0.343,1.571,0.000,
0.970,1.223,2.531,7260.610,90390.408,0.350,1.571,0.000,
0.980,1.249,2.557,7260.204,90390.408,0.358,1.571,0.000,
0.990,1.274,2.584,7259.798,90390.408,0.365,1.571,0.000,
1.000,1.300,2.610,7259.392,90390.408,0.373,1.571,0.000,
1.100,1.575,2.875,7255.331,90390.408,0.381,1.571,0.000,
1.200,1.875,3.141,7251.270,90390.406,0.462,1.571,0.000,
1.300,2.203,3.407,7247.210,90390.405,0.551,1.571,0.000,
1.400,2.557,3.674,7243.149,90390.403,0.648,1.571,0.000,
1.500,2.937,3.941,7239.088,90390.401,0.754,1.571,0.000,
1.600,3.345,4.210,7235.027,90390.399,0.868,1.571,0.000,
1.700,3.779,4.479,7230.966,90390.396,0.990,1.571,0.000,
1.800,4.241,4.748,7226.906,90390.394,1.120,1.571,0.000,
1.900,4.729,5.019,7222.845,90390.391,1.259,1.571,0.000,
2.000,5.244,5.290,7218.784,90390.389,1.407,1.571,0.000,
2.100,5.787,5.562,7214.723,90390.386,1.563,1.571,0.000,
2.200,6.357,5.834,7210.662,90390.383,1.727,1.571,0.000,
2.300,6.954,6.108,7206.602,90390.380,1.901,1.571,0.000,
2.400,7.578,6.381,7202.541,90390.376,2.083,1.571,0.000,
2.500,8.230,6.656,7198.480,90390.373,2.274,1.571,0.000,
2.600,8.910,6.931,7194.419,90390.369,2.473,1.571,0.000,
2.700,9.616,7.208,7190.358,90390.366,2.682,1.571,0.000,
2.800,10.351,7.484,7186.298,90390.362,2.900,1.571,0.000,
2.900,11.113,7.762,7182.237,90390.358,3.126,1.571,0.000,
3.000,11.903,8.040,7178.176,90390.353,3.362,1.571,0.000,
3.100,12.721,8.319,7174.115,90390.349,3.607,1.571,0.000,
3.200,13.567,8.598,7170.055,90390.344,3.861,1.571,0.000,
3.300,14.441,8.879,7165.994,90390.340,4.125,1.571,0.000,
3.400,15.343,9.160,7161.933,90390.335,4.398,1.571,0.000,
3.500,16.273,9.441,7157.872,90390.330,4.680,1.571,0.000,
3.600,17.231,9.724,7153.811,90390.325,4.972,1.571,0.000,
3.700,18.218,10.007,7149.751,90390.319,5.273,1.571,0.000,
3.800,19.233,10.291,7145.690,90390.314,5.584,1.571,0.000,
3.900,20.276,10.576,7141.629,90390.308,5.904,1.571,0.000,
4.000,21.348,10.861,7137.568,90390.303,6.235,1.571,0.000,
4.100,22.448,11.147,7133.507,90390.297,6.575,1.571,0.000,
4.200,23.577,11.434,7129.447,90390.291,6.925,1.571,0.000,
4.300,24.735,11.721,7125.386,90390.284,7.285,1.571,0.000,
4.400,25.921,12.009,7121.325,90390.278,7.654,1.571,0.000,
4.500,27.137,12.298,7117.264,90390.272,8.034,1.571,0.000,
4.600,28.381,12.588,7113.203,90390.265,8.424,1.571,0.000,
4.700,29.654,12.878,7109.143,90390.258,8.824,1.571,0.000,
4.800,30.957,13.169,7105.082,90390.251,9.235,1.571,0.000,
4.900,32.288,13.461,7101.021,90390.244,9.655,1.571,0.000,
5.000,33.649,13.753,7096.960,90390.237,10.086,1.571,0.000,
5.100,35.039,14.047,7092.899,90390.229,10.528,1.570,0.000,
5.200,36.458,14.341,7088.839,90390.222,10.980,1.570,0.001,
5.300,37.907,14.635,7084.778,90390.214,11.442,1.569,0.004,
5.400,39.385,14.931,7080.717,90390.206,11.915,1.568,0.007,
5.500,40.893,15.227,7076.656,90390.198,12.399,1.568,0.011,
5.600,42.430,15.524,7072.595,90390.190,12.893,1.567,0.016,
5.700,43.998,15.821,7068.535,90390.182,13.398,1.567,0.022,
5.800,45.595,16.119,7064.474,90390.173,13.914,1.566,0.029,
5.900,47.221,16.418,7060.413,90390.165,14.441,1.565,0.038,
6.000,48.878,16.718,7056.352,90390.156,14.979,1.565,0.047,
6.100,50.565,17.019,7052.291,90390.147,15.528,1.564,0.058,
6.200,52.282,17.320,7048.231,90390.138,16.088,1.563,0.070,
6.300,54.029,17.622,7044.170,90390.129,16.659,1.563,0.084,
6.400,55.806,17.925,7040.109,90390.119,17.241,1.562,0.098,
6.500,57.614,18.228,7036.048,90390.110,17.835,1.562,0.114,
6.600,59.452,18.532,7031.987,90390.100,18.440,1.561,0.131,
6.700,61.320,18.837,7027.927,90390.090,19.056,1.560,0.150,
6.800,63.219,19.143,7023.866,90390.080,19.684,1.560,0.170,
6.900,65.148,19.449,7019.805,90390.070,20.324,1.559,0.192,
7.000,67.108,19.756,7015.744,90390.060,20.975,1.559,0.215,
7.100,69.099,20.064,7011.683,90390.050,21.637,1.558,0.240,
7.200,71.121,20.373,7007.623,90390.039,22.312,1.557,0.267,
7.300,73.173,20.682,7003.562,90390.028,22.998,1.557,0.295,
7.400,75.257,20.992,6999.501,90390.017,23.696,1.556,0.325,
7.500,77.372,21.303,6995.440,90390.006,24.406,1.556,0.356,
7.600,79.517,21.615,6991.379,90389.995,25.128,1.555,0.389,
7.700,81.694,21.927,6987.319,90389.984,25.862,1.554,0.425,
7.800,83.902,22.240,6983.258,90389.973,26.608,1.554,0.462,
7.900,86.141,22.554,6979.197,90389.961,27.366,1.553,0.500,
8.000,88.412,22.869,6975.136,90389.949,28.136,1.553,0.541,
8.100,90.714,23.184,6971.075,90389.938,28.919,1.552,0.584,
8.200,93.048,23.500,6967.015,90389.926,29.714,1.551,0.629,
8.300,95.414,23.817,6962.954,90389.913,30.521,1.551,0.675,
8.400,97.811,24.135,6958.893,90389.901,31.341,1.550,0.724,
8.500,100.240,24.453,6954.832,90389.889,32.174,1.549,0.775,
8.600,102.700,24.773,6950.772,90389.876,33.019,1.549,0.829,
8.700,105.193,25.093,6946.711,90389.863,33.876,1.548,0.884,
8.800,107.717,25.413,6942.650,90389.851,34.747,1.548,0.942,
8.900,110.274,25.735,6938.589,90389.838,35.630,1.547,1.001,
9.000,112.863,26.057,6934.528,90389.825,36.526,1.546,1.064,
9.100,115.484,26.380,6930.468,90389.811,37.435,1.546,1.128,
9.200,118.137,26.704,6926.407,90389.798,38.357,1.545,1.195,
9.300,120.823,27.028,6922.346,90389.785,39.292,1.545,1.265,
9.400,123.541,27.353,6918.285,90389.771,40.240,1.544,1.337,
9.500,126.292,27.680,6914.224,90389.757,41.201,1.543,1.411,
9.600,129.075,28.006,6910.164,90389.743,42.175,1.543,1.488,
9.700,131.891,28.334,6906.103,90389.729,43.163,1.542,1.568,
9.800,134.739,28.662,6902.042,90389.715,44.164,1.542,1.651,
9.900,137.621,28.991,6897.981,90389.701,45.178,1.541,1.736,
10.000,140.535,29.321,6893.920,90389.686,46.206,1.540,1.823,
10.100,143.482,29.652,6889.860,90389.672,47.247,1.540,1.914,
10.200,146.463,29.984,6885.799,90389.657,48.302,1.539,2.008,
10.300,149.476,30.316,6881.738,90389.642,49.370,1.539,2.104,
10.400,152.523,30.649,6877.677,90389.627,50.452,1.538,2.203,
10.500,155.602,30.983,6873.616,90389.612,51.548,1.537,2.305,
10.600,158.716,31.317,6869.556,90389.597,52.658,1.537,2.410,
10.700,161.862,31.653,6865.495,90389.582,53.782,1.536,2.519,
10.800,165.042,31.989,6861.434,90389.566,54.919,1.535,2.630,
10.900,168.256,32.326,6857.373,90389.551,56.071,1.535,2.745,
11.000,171.503,32.663,6853.312,90389.535,57.236,1.534,2.862,
11.100,174.784,33.002,6849.252,90389.519,58.416,1.534,2.983,
11.200,178.099,33.341,6845.191,90389.504,59.610,1.533,3.107,
11.300,181.448,33.681,6841.130,90389.488,60.818,1.532,3.235,
11.400,184.831,34.022,6837.069,90389.471,62.040,1.532,3.365,
11.500,188.247,34.364,6833.008,90389.455,63.277,1.531,3.500,
11.600,191.698,34.706,6828.948,90389.439,64.528,1.531,3.637,
11.700,195.183,35.050,6824.887,90389.422,65.793,1.530,3.778,
11.800,198.702,35.394,6820.826,90389.406,67.074,1.529,3.923,
11.900,202.256,35.738,6816.765,90389.389,68.368,1.529,4.071,
12.000,205.843,36.084,6812.704,90389.372,69.678,1.528,4.223,
12.100,209.466,36.431,6808.644,90389.355,71.002,1.528,4.379,
12.200,213.123,36.778,6804.583,90389.338,72.340,1.527,4.538,
12.300,216.814,37.126,6800.522,90389.321,73.694,1.526,4.701,
12.400,220.541,37.475,6796.461,90389.304,75.062,1.526,4.868,
12.500,224.302,37.824,6792.400,90389.287,76.446,1.525,5.038,
12.600,228.098,38.175,6788.340,90389.269,77.844,1.525,5.213,
12.700,231.928,38.526,6784.279,90389.252,79.257,1.524,5.392,
12.800,235.794,38.878,6780.218,90389.234,80.686,1.523,5.574,
12.900,239.695,39.231,6776.157,90389.216,82.129,1.523,5.761,
13.000,243.631,39.585,6772.096,90389.199,83.588,1.522,5.951,
13.100,247.603,39.939,6768.036,90389.181,85.062,1.521,6.146,
13.200,251.609,40.294,6763.975,90389.163,86.552,1.521,6.345,
13.300,255.652,40.650,6759.914,90389.145,88.056,1.520,6.548,
13.400,259.729,41.007,6755.853,90389.126,89.577,1.520,6.755,
13.500,263.842,41.365,6751.792,90389.108,91.112,1.519,6.967,
13.600,267.991,41.723,6747.732,90389.090,92.664,1.518,7.183,
13.700,272.176,42.083,6743.671,90389.071,94.230,1.518,7.404,
13.800,276.396,42.443,6739.610,90389.053,95.813,1.517,7.629,
13.900,280.652,42.804,6735.549,90389.034,97.411,1.517,7.858,
14.000,284.944,43.166,6731.488,90389.016,99.025,1.516,8.092,
14.100,289.272,43.528,6727.428,90388.997,100.655,1.515,8.331,
14.200,293.636,43.892,6723.367,90388.978,102.300,1.515,8.574,
14.300,298.037,44.256,6719.306,90388.959,103.962,1.514,8.822,
14.400,302.473,44.621,6715.245,90388.940,105.639,1.514,9.075,
14.500,306.946,44.987,6711.185,90388.921,107.332,1.513,9.332,
14.600,311.456,45.354,6707.124,90388.902,109.042,1.512,9.595,
14.700,316.002,45.721,6703.063,90388.883,110.768,1.512,9.862,
14.800,320.584,46.090,6699.002,90388.863,112.509,1.511,10.134,
14.900,325.203,46.459,6694.941,90388.844,114.267,1.511,10.412,
15.000,329.859,46.829,6690.881,90388.825,116.042,1.510,10.694,
15.100,334.552,47.200,6686.820,90388.805,117.832,1.509,10.981,
15.200,339.281,47.571,6682.759,90388.786,119.639,1.509,11.274,
15.300,344.047,47.944,6678.698,90388.766,121.463,1.508,11.572,
15.400,348.851,48.317,6674.637,90388.747,123.303,1.507,11.875,
15.500,353.692,48.691,6670.577,90388.727,125.159,1.507,12.183,
15.600,358.569,49.066,6666.516,90388.707,127.032,1.506,12.497,
15.700,363.484,49.442,6662.455,90388.687,128.921,1.506,12.816,
15.800,368.437,49.819,6658.394,90388.668,130.828,1.505,13.140,
15.900,373.427,50.196,6654.333,90388.648,132.751,1.504,13.470,
16.000,378.454,50.575,6650.273,90388.628,134.690,1.504,13.806,
16.100,383.519,50.954,6646.212,90388.608,136.647,1.503,14.147,
16.200,388.622,51.334,6642.151,90388.588,138.620,1.503,14.494,
16.300,393.762,51.715,6638.090,90388.568,140.611,1.502,14.846,
16.400,398.940,52.097,6634.029,90388.548,142.618,1.501,15.204,
16.500,404.156,52.479,6629.969,90388.528,144.642,1.501,15.568,
16.600,409.410,52.863,6625.908,90388.508,146.684,1.500,15.938,
16.700,414.702,53.247,6621.847,90388.487,148.742,1.500,16.314,
16.800,420.033,53.632,6617.786,90388.467,150.817,1.499,16.696,
16.900,425.401,54.018,6613.725,90388.447,152.910,1.498,17.084,
17.000,430.808,54.405,6609.665,90388.427,155.020,1.498,17.478,
17.100,436.253,54.792,6605.604,90388.407,157.147,1.497,17.878,
17.200,441.737,55.181,6601.543,90388.386,159.292,1.497,18.284,
17.300,447.259,55.570,6597.482,90388.366,161.454,1.496,18.697,
17.400,452.820,55.961,6593.421,90388.346,163.633,1.495,19.115,
17.500,458.419,56.352,6589.361,90388.325,165.829,1.495,19.541,
17.600,464.057,56.744,6585.300,90388.305,168.044,1.494,19.972,
17.700,469.734,57.136,6581.239,90388.285,170.275,1.493,20.410,
17.800,475.450,57.530,6577.178,90388.264,172.524,1.493,20.854,
17.900,481.206,57.925,6573.117,90388.244,174.791,1.492,21.305,
18.000,487.000,58.320,6569.057,90388.224,177.076,1.492,21.763,
18.100,492.833,58.716,6564.996,90388.204,179.378,1.491,22.227,
18.200,498.706,59.113,6560.935,90388.183,181.698,1.490,22.698,
18.300,504.618,59.511,6556.874,90388.163,184.035,1.490,23.176,
18.400,510.569,59.910,6552.813,90388.143,186.391,1.489,23.661,
18.500,516.560,60.310,6548.753,90388.122,188.764,1.489,24.152,
18.600,522.590,60.710,6544.692,90388.102,191.155,1.488,24.651,
18.700,528.660,61.112,6540.631,90388.082,193.564,1.487,25.156,
18.800,534.770,61.514,6536.570,90388.062,195.991,1.487,25.669,
18.900,540.920,61.917,6532.509,90388.042,198.436,1.486,26.188,
19.000,547.109,62.321,6528.449,90388.022,200.899,1.486,26.715,
19.100,553.339,62.726,6524.388,90388.002,203.380,1.485,27.249,
19.200,559.608,63.132,6520.327,90387.981,205.879,1.484,27.790,
19.300,565.918,63.539,6516.266,90387.961,208.396,1.484,28.339,
19.400,572.268,63.946,6512.205,90387.941,210.932,1.483,28.895,
19.500,578.658,64.355,6508.145,90387.922,213.485,1.483,29.458,
19.600,585.089,64.764,6504.084,90387.902,216.057,1.482,30.029,
19.700,591.560,65.174,6500.023,90387.882,218.647,1.481,30.608,
19.800,598.072,65.585,6495.962,90387.862,221.256,1.481,31.194,
19.900,604.624,65.997,6491.902,90387.842,223.882,1.480,31.788,
20.000,611.217,66.410,6487.841,90387.823,226.527,1.479,32.389,
20.100,617.851,66.824,6483.780,90387.803,229.191,1.479,32.999,
20.200,624.525,67.239,6479.719,90387.784,231.873,1.478,33.616,
20.300,631.241,67.654,6475.658,90387.764,234.573,1.478,34.241,
20.400,637.997,68.070,6471.598,90387.745,237.292,1.477,34.874,
20.500,644.795,68.488,6467.537,90387.726,240.029,1.476,35.515,
20.600,651.634,68.906,6463.476,90387.706,242.784,1.476,36.164,
20.700,658.514,69.325,6459.415,90387.687,245.559,1.475,36.822,
20.800,665.436,69.745,6455.354,90387.668,248.352,1.475,37.487,
20.900,672.399,70.166,6451.294,90387.649,251.163,1.474,38.161,
21.000,679.403,70.588,6447.233,90387.630,253.993,1.473,38.843,
21.100,686.449,71.010,6443.172,90387.612,256.842,1.473,39.533,
21.200,693.537,71.434,6439.111,90387.593,259.709,1.472,40.232,
21.300,700.667,71.858,6435.050,90387.574,262.596,1.472,40.940,
21.400,707.838,72.284,6430.990,90387.556,265.500,1.471,41.656,
21.500,715.052,72.710,6426.929,90387.538,268.424,1.470,42.380,
21.600,722.307,73.137,6422.868,90387.519,271.367,1.470,43.113,
21.700,729.604,73.565,6418.807,90387.501,274.328,1.469,43.856,
21.800,736.944,73.994,6414.746,90387.483,277.308,1.469,44.606,
21.900,744.326,74.424,6410.686,90387.465,280.307,1.468,45.366,
22.000,751.750,74.854,6406.625,90387.448,283.324,1.467,46.135,
22.100,759.217,75.286,6402.564,90387.430,286.361,1.467,46.912,
22.200,766.726,75.719,6398.503,90387.413,289.416,1.466,47.699,
22.300,774.277,76.152,6394.442,90387.395,292.491,1.465,48.494,
22.400,781.872,76.587,6390.382,90387.378,295.584,1.465,49.299,
22.500,789.509,77.022,6386.321,90387.361,298.696,1.464,50.113,
22.600,797.189,77.458,6382.260,90387.344,301.828,1.464,50.937,
22.700,804.912,77.895,6378.199,90387.328,304.978,1.463,51.770,
22.800,812.678,78.333,6374.138,90387.311,308.147,1.462,52.612,
22.900,820.486,78.772,6370.078,90387.295,311.335,1.462,53.464,
23.000,828.339,79.212,6366.017,90387.279,314.543,1.461,54.325,
23.100,836.234,79.653,6361.956,90387.263,317.769,1.461,55.196,
23.200,844.173,80.095,6357.895,90387.247,321.014,1.460,56.076,
23.300,852.155,80.537,6353.834,90387.231,324.279,1.459,56.966,
23.400,860.180,80.981,6349.774,90387.216,327.562,1.459,57.866,
23.500,868.249,81.425,6345.713,90387.200,330.865,1.458,58.776,
23.600,876.362,81.871,6341.652,90387.185,334.187,1.458,59.696,
23.700,884.519,82.317,6337.591,90387.170,337.528,1.457,60.626,
23.800,892.719,82.764,6333.530,90387.156,340.887,1.456,61.566,
23.900,900.963,83.213,6329.470,90387.141,344.267,1.456,62.515,
24.000,909.252,83.662,6325.409,90387.127,347.665,1.455,63.476,
24.100,917.584,84.112,6321.348,90387.113,351.082,1.455,64.446,
24.200,925.960,84.563,6317.287,90387.099,354.519,1.454,65.427,
