STAGE 1 Parameters:
Fuel mass (kg): 5554.134481501211
Dry mass (kg): 1200.0
Fuel fract: 0.8223310472590292
Isp @ SL: 224.03090054038694
Burn time (sec): 135.58281753145025
Thrust (N): 90030.294
dM/dt: 40.96488465592519

TIME,HEIGHT,VELOCITY,MASS,THRUST,DRAG,GAMMA,RANGE
0.000,0.001,0.000,7254.134,0.000,0.000,1.571,0.000,
0.010,0.001,0.027,7253.725,90390.415,0.000,1.571,0.000,
0.020,0.002,0.053,7253.315,90390.415,0.000,1.571,0.000,
0.030,0.002,0.080,7252.906,90390.415,0.000,1.571,0.000,
0.040,0.003,0.106,7252.496,90390.415,0.000,1.571,0.000,
0.050,0.004,0.133,7252.086,90390.415,0.001,1.571,0.000,
0.060,0.006,0.159,7251.677,90390.415,0.001,1.571,0.000,
0.070,0.008,0.186,7251.267,90390.415,0.001,1.571,0.000,
0.080,0.009,0.213,7250.857,90390.415,0.002,1.571,0.000,
0.090,0.012,0.239,7250.448,90390.415,0.003,1.571,0.000,
0.100,0.014,0.266,7250.038,90390.415,0.003,1.571,0.000,
0.110,0.017,0.292,7249.628,90390.415,0.004,1.571,0.000,
0.120,0.020,0.319,7249.219,90390.415,0.005,1.571,0.000,
0.130,0.023,0.346,7248.809,90390.415,0.006,1.571,0.000,
0.140,0.027,0.372,7248.399,90390.415,0.007,1.571,0.000,
0.150,0.031,0.399,7247.990,90390.415,0.008,1.571,0.000,
0.160,0.035,0.426,7247.580,90390.415,0.009,1.571,0.000,
0.170,0.039,0.452,7247.170,90390.415,0.010,1.571,0.000,
0.180,0.044,0.479,7246.761,90390.415,0.011,1.571,0.000,
0.190,0.049,0.506,7246.351,90390.415,0.013,1.571,0.000,
0.200,0.054,0.532,7245.942,90390.415,0.014,1.571,0.000,
0.210,0.060,0.559,7245.532,90390.415,0.016,1.571,0.000,
0.220,0.065,0.586,7245.122,90390.415,0.017,1.571,0.000,
0.230,0.071,0.612,7244.713,90390.415,0.019,1.571,0.000,
0.240,0.078,0.639,7244.303,90390.415,0.021,1.571,0.000,
0.250,0.084,0.666,7243.893,90390.415,0.023,1.571,0.000,
0.260,0.091,0.692,7243.484,90390.415,0.025,1.571,0.000,
0.270,0.098,0.719,7243.074,90390.415,0.027,1.571,0.000,
0.280,0.105,0.746,7242.664,90390.415,0.029,1.571,0.000,
0.290,0.113,0.773,7242.255,90390.415,0.031,1.571,0.000,
0.300,0.121,0.799,7241.845,90390.415,0.033,1.571,0.000,
0.310,0.129,0.826,7241.435,90390.415,0.036,1.571,0.000,
0.320,0.137,0.853,7241.026,90390.414,0.038,1.571,0.000,
0.330,0.146,0.880,7240.616,90390.414,0.041,1.571,0.000,
0.340,0.155,0.906,7240.206,90390.414,0.043,1.571,0.000,
0.350,0.164,0.933,7239.797,90390.414,0.046,1.571,0.000,
0.360,0.174,0.960,7239.387,90390.414,0.049,1.571,0.000,
0.370,0.183,0.987,7238.977,90390.414,0.051,1.571,0.000,
0.380,0.193,1.014,7238.568,90390.414,0.054,1.571,0.000,
0.390,0.204,1.040,7238.158,90390.414,0.057,1.571,0.000,
0.400,0.214,1.067,7237.749,90390.414,0.060,1.571,0.000,
0.410,0.225,1.094,7237.339,90390.414,0.064,1.571,0.000,
0.420,0.236,1.121,7236.929,90390.414,0.067,1.571,0.000,
0.430,0.247,1.148,7236.520,90390.414,0.070,1.571,0.000,
0.440,0.259,1.175,7236.110,90390.414,0.074,1.571,0.000,
0.450,0.271,1.201,7235.700,90390.414,0.077,1.571,0.000,
0.460,0.283,1.228,7235.291,90390.414,0.081,1.571,0.000,
0.470,0.295,1.255,7234.881,90390.414,0.084,1.571,0.000,
0.480,0.308,1.282,7234.471,90390.414,0.088,1.571,0.000,
0.490,0.321,1.309,7234.062,90390.413,0.092,1.571,0.000,
0.500,0.334,1.336,7233.652,90390.413,0.096,1.571,0.000,
0.510,0.348,1.363,7233.242,90390.413,0.100,1.571,0.000,
0.520,0.361,1.390,7232.833,90390.413,0.104,1.571,0.000,
0.530,0.375,1.416,7232.423,90390.413,0.108,1.571,0.000,
0.540,0.390,1.443,7232.013,90390.413,0.112,1.571,0.000,
0.550,0.404,1.470,7231.604,90390.413,0.116,1.571,0.000,
0.560,0.419,1.497,7231.194,90390.413,0.121,1.571,0.000,
0.570,0.434,1.524,7230.784,90390.413,0.125,1.571,0.000,
0.580,0.450,1.551,7230.375,90390.413,0.130,1.571,0.000,
0.590,0.465,1.578,7229.965,90390.413,0.134,1.571,0.000,
0.600,0.481,1.605,7229.556,90390.413,0.139,1.571,0.000,
0.610,0.497,1.632,7229.146,90390.412,0.144,1.571,0.000,
0.620,0.514,1.659,7228.736,90390.412,0.149,1.571,0.000,
0.630,0.531,1.686,7228.327,90390.412,0.154,1.571,0.000,
0.640,0.548,1.713,7227.917,90390.412,0.159,1.571,0.000,
0.650,0.565,1.740,7227.507,90390.412,0.164,1.571,0.000,
0.660,0.582,1.767,7227.098,90390.412,0.169,1.571,0.000,
0.670,0.600,1.794,7226.688,90390.412,0.174,1.571,0.000,
0.680,0.618,1.821,7226.278,90390.412,0.180,1.571,0.000,
0.690,0.637,1.848,7225.869,90390.412,0.185,1.571,0.000,
0.700,0.655,1.875,7225.459,90390.412,0.191,1.571,0.000,
0.710,0.674,1.902,7225.049,90390.412,0.196,1.571,0.000,
0.720,0.693,1.929,7224.640,90390.411,0.202,1.571,0.000,
0.730,0.713,1.956,7224.230,90390.411,0.208,1.571,0.000,
0.740,0.732,1.983,7223.820,90390.411,0.214,1.571,0.000,
0.750,0.752,2.010,7223.411,90390.411,0.220,1.571,0.000,
0.760,0.773,2.037,7223.001,90390.411,0.226,1.571,0.000,
0.770,0.793,2.064,7222.592,90390.411,0.232,1.571,0.000,
0.780,0.814,2.092,7222.182,90390.411,0.238,1.571,0.000,
0.790,0.835,2.119,7221.772,90390.411,0.244,1.571,0.000,
0.800,0.856,2.146,7221.363,90390.411,0.251,1.571,0.000,
0.810,0.878,2.173,7220.953,90390.410,0.257,1.571,0.000,
0.820,0.900,2.200,7220.543,90390.410,0.264,1.571,0.000,
0.830,0.922,2.227,7220.134,90390.410,0.270,1.571,0.000,
0.840,0.944,2.254,7219.724,90390.410,0.277,1.571,0.000,
0.850,0.967,2.281,7219.314,90390.410,0.284,1.571,0.000,
0.860,0.990,2.308,7218.905,90390.410,0.291,1.571,0.000,
0.870,1.013,2.336,7218.495,90390.410,0.298,1.571,0.000,
0.880,1.037,2.363,7218.085,90390.410,0.305,1.571,0.000,
0.890,1.060,2.390,7217.676,90390.409,0.312,1.571,0.000,
0.900,1.084,2.417,7217.266,90390.409,0.319,1.571,0.000,
0.910,1.109,2.444,7216.856,90390.409,0.326,1.571,0.000,
0.920,1.133,2.471,7216.447,90390.409,0.334,1.571,0.000,
0.930,1.158,2.499,7216.037,90390.409,0.341,1.571,0.000,
0.940,1.183,2.526,7215.627,90390.409,0.349,1.571,0.000,
0.950,1.209,2.553,7215.218,90390.409,0.356,1.571,0.000,
0.960,1.234,2.580,7214.808,90390.408,0.364,1.571,0.000,
0.970,1.260,2.608,7214.399,90390.408,0.372,1.571,0.000,
0.980,1.286,2.635,7213.989,90390.408,0.380,1.571,0.000,
0.990,1.313,2.662,7213.579,90390.408,0.388,1.571,0.000,
1.000,1.340,2.689,7213.170,90390.408,0.396,1.571,0.000,
1.100,1.622,2.962,7209.073,90390.408,0.404,1.571,0.000,
1.200,1.932,3.236,7204.977,90390.406,0.490,1.571,0.000,
1.300,2.269,3.510,7200.880,90390.404,0.585,1.571,0.000,
1.400,2.634,3.785,7196.784,90390.402,0.688,1.571,0.000,
1.500,3.026,4.060,7192.687,90390.400,0.800,1.571,0.000,
1.600,3.446,4.337,7188.591,90390.398,0.921,1.571,0.000,
1.700,3.894,4.614,7184.494,90390.396,1.051,1.571,0.000,
1.800,4.369,4.892,7180.398,90390.393,1.189,1.571,0.000,
1.900,4.872,5.170,7176.301,90390.391,1.336,1.571,0.000,
2.000,5.403,5.450,7172.205,90390.388,1.493,1.571,0.000,
2.100,5.962,5.730,7168.108,90390.385,1.658,1.571,0.000,
2.200,6.549,6.010,7164.012,90390.382,1.833,1.571,0.000,
2.300,7.164,6.292,7159.915,90390.379,2.017,1.571,0.000,
2.400,7.807,6.574,7155.819,90390.375,2.210,1.571,0.000,
2.500,8.479,6.857,7151.722,90390.372,2.413,1.571,0.000,
2.600,9.179,7.140,7147.626,90390.368,2.624,1.571,0.000,
2.700,9.907,7.424,7143.529,90390.364,2.846,1.571,0.000,
2.800,10.663,7.709,7139.433,90390.360,3.077,1.571,0.000,
2.900,11.449,7.995,7135.336,90390.356,3.317,1.571,0.000,
3.000,12.262,8.282,7131.240,90390.351,3.567,1.571,0.000,
3.100,13.105,8.569,7127.143,90390.347,3.827,1.571,0.000,
3.200,13.976,8.857,7123.047,90390.342,4.097,1.571,0.000,
3.300,14.876,9.145,7118.950,90390.337,4.376,1.571,0.000,
3.400,15.805,9.435,7114.854,90390.332,4.665,1.571,0.000,
3.500,16.763,9.725,7110.757,90390.327,4.965,1.571,0.000,
3.600,17.750,10.016,7106.661,90390.322,5.274,1.571,0.000,
3.700,18.766,10.307,7102.564,90390.317,5.594,1.571,0.000,
3.800,19.812,10.599,7098.468,90390.311,5.923,1.571,0.000,
3.900,20.886,10.892,7094.371,90390.305,6.263,1.571,0.000,
4.000,21.990,11.186,7090.275,90390.299,6.613,1.571,0.000,
4.100,23.123,11.481,7086.178,90390.293,6.974,1.571,0.000,
4.200,24.286,11.776,7082.082,90390.287,7.345,1.571,0.000,
4.300,25.479,12.072,7077.985,90390.281,7.726,1.571,0.000,
4.400,26.701,12.368,7073.889,90390.274,8.119,1.571,0.000,
4.500,27.952,12.666,7069.793,90390.267,8.521,1.571,0.000,
4.600,29.234,12.964,7065.696,90390.260,8.935,1.571,0.000,
4.700,30.545,13.263,7061.600,90390.253,9.359,1.571,0.000,
4.800,31.886,13.562,7057.503,90390.246,9.794,1.571,0.000,
4.900,33.258,13.863,7053.407,90390.239,10.240,1.571,0.000,
5.000,34.659,14.164,7049.310,90390.232,10.696,1.571,0.000,
5.100,36.090,14.466,7045.214,90390.224,11.164,1.570,0.000,
5.200,37.552,14.768,7041.117,90390.216,11.643,1.570,0.001,
5.300,39.044,15.072,7037.021,90390.208,12.133,1.569,0.004,
5.400,40.566,15.376,7032.924,90390.200,12.634,1.568,0.007,
5.500,42.119,15.680,7028.828,90390.192,13.147,1.568,0.011,
5.600,43.702,15.986,7024.731,90390.183,13.671,1.567,0.017,
5.700,45.316,16.292,7020.635,90390.175,14.206,1.566,0.023,
5.800,46.961,16.599,7016.538,90390.166,14.753,1.566,0.031,
5.900,48.636,16.907,7012.442,90390.157,15.311,1.565,0.040,
6.000,50.342,17.215,7008.345,90390.148,15.881,1.565,0.050,
6.100,52.079,17.525,7004.249,90390.139,16.462,1.564,0.061,
6.200,53.847,17.835,7000.152,90390.130,17.056,1.563,0.074,
6.300,55.646,18.146,6996.056,90390.120,17.661,1.563,0.088,
6.400,57.476,18.457,6991.959,90390.111,18.278,1.562,0.103,
6.500,59.337,18.769,6987.863,90390.101,18.907,1.562,0.120,
6.600,61.230,19.082,6983.766,90390.091,19.547,1.561,0.138,
6.700,63.153,19.396,6979.670,90390.081,20.200,1.560,0.157,
6.800,65.109,19.711,6975.573,90390.071,20.865,1.560,0.179,
6.900,67.095,20.026,6971.477,90390.060,21.543,1.559,0.201,
7.000,69.114,20.342,6967.380,90390.050,22.232,1.558,0.226,
7.100,71.163,20.659,6963.284,90390.039,22.934,1.558,0.252,
7.200,73.245,20.976,6959.187,90390.028,23.648,1.557,0.279,
7.300,75.358,21.295,6955.091,90390.017,24.375,1.557,0.309,
7.400,77.504,21.614,6950.994,90390.006,25.114,1.556,0.340,
7.500,79.681,21.934,6946.898,90389.995,25.866,1.555,0.373,
7.600,81.890,22.254,6942.801,90389.983,26.630,1.555,0.408,
7.700,84.131,22.576,6938.705,90389.972,27.407,1.554,0.445,
7.800,86.404,22.898,6934.608,90389.960,28.197,1.553,0.484,
7.900,88.710,23.221,6930.512,90389.948,29.000,1.553,0.524,
8.000,91.048,23.545,6926.415,90389.936,29.815,1.552,0.567,
8.100,93.418,23.869,6922.319,90389.924,30.644,1.552,0.612,
8.200,95.821,24.194,6918.222,90389.911,31.485,1.551,0.659,
8.300,98.256,24.521,6914.126,90389.899,32.340,1.550,0.708,
8.400,100.724,24.847,6910.029,90389.886,33.208,1.550,0.759,
8.500,103.224,25.175,6905.933,90389.874,34.089,1.549,0.812,
8.600,105.758,25.503,6901.836,90389.861,34.984,1.548,0.868,
8.700,108.324,25.832,6897.740,90389.848,35.891,1.548,0.926,
8.800,110.923,26.162,6893.643,90389.835,36.812,1.547,0.987,
8.900,113.555,26.493,6889.547,90389.821,37.747,1.547,1.049,
9.000,116.220,26.825,6885.451,90389.808,38.695,1.546,1.115,
9.100,118.918,27.157,6881.354,90389.794,39.657,1.545,1.182,
9.200,121.649,27.490,6877.258,90389.781,40.633,1.545,1.253,
9.300,124.414,27.824,6873.161,90389.767,41.622,1.544,1.325,
9.400,127.212,28.158,6869.065,90389.753,42.625,1.544,1.401,
9.500,130.044,28.494,6864.968,90389.739,43.642,1.543,1.479,
9.600,132.909,28.830,6860.872,90389.724,44.673,1.542,1.560,
9.700,135.807,29.167,6856.775,90389.710,45.718,1.542,1.643,
9.800,138.740,29.505,6852.679,90389.695,46.776,1.541,1.729,
9.900,141.706,29.843,6848.582,90389.681,47.849,1.540,1.819,
10.000,144.705,30.183,6844.486,90389.666,48.937,1.540,1.911,
10.100,147.739,30.523,6840.389,90389.651,50.038,1.539,2.006,
10.200,150.807,30.864,6836.293,90389.636,51.154,1.539,2.103,
10.300,153.909,31.205,6832.196,90389.621,52.284,1.538,2.204,
10.400,157.045,31.548,6828.100,90389.605,53.428,1.537,2.308,
10.500,160.215,31.891,6824.003,90389.590,54.588,1.537,2.415,
10.600,163.419,32.235,6819.907,90389.574,55.761,1.536,2.526,
10.700,166.658,32.580,6815.810,90389.559,56.949,1.535,2.639,
10.800,169.931,32.926,6811.714,90389.543,58.152,1.535,2.756,
10.900,173.239,33.273,6807.617,90389.527,59.370,1.534,2.876,
11.000,176.581,33.620,6803.521,90389.511,60.602,1.534,2.999,
11.100,179.958,33.968,6799.424,90389.495,61.850,1.533,3.125,
11.200,183.370,34.317,6795.328,90389.479,63.112,1.532,3.256,
11.300,186.817,34.667,6791.231,90389.462,64.389,1.532,3.389,
11.400,190.298,35.017,6787.135,90389.446,65.682,1.531,3.526,
11.500,193.815,35.369,6783.038,90389.429,66.989,1.531,3.667,
11.600,197.366,35.721,6778.942,90389.412,68.311,1.530,3.811,
11.700,200.953,36.074,6774.845,90389.395,69.649,1.529,3.959,
11.800,204.575,36.428,6770.749,90389.378,71.002,1.529,4.110,
11.900,208.232,36.782,6766.652,90389.361,72.371,1.528,4.265,
12.000,211.924,37.138,6762.556,90389.344,73.755,1.527,4.425,
12.100,215.652,37.494,6758.459,90389.327,75.154,1.527,4.587,
12.200,219.416,37.851,6754.363,90389.309,76.569,1.526,4.754,
12.300,223.215,38.209,6750.266,90389.292,77.999,1.526,4.925,
12.400,227.050,38.568,6746.170,90389.274,79.445,1.525,5.100,
12.500,230.921,38.927,6742.073,90389.257,80.907,1.524,5.278,
12.600,234.827,39.287,6737.977,90389.239,82.385,1.524,5.461,
12.700,238.769,39.649,6733.880,90389.221,83.878,1.523,5.648,
12.800,242.748,40.011,6729.784,90389.203,85.387,1.522,5.839,
12.900,246.762,40.373,6725.687,90389.185,86.913,1.522,6.035,
13.000,250.813,40.737,6721.591,90389.167,88.454,1.521,6.234,
13.100,254.899,41.102,6717.494,90389.148,90.011,1.521,6.438,
13.200,259.023,41.467,6713.398,90389.130,91.584,1.520,6.647,
13.300,263.182,41.833,6709.302,90389.111,93.174,1.519,6.859,
13.400,267.378,42.200,6705.205,90389.093,94.780,1.519,7.077,
13.500,271.611,42.568,6701.109,90389.074,96.402,1.518,7.298,
13.600,275.880,42.936,6697.012,90389.055,98.040,1.518,7.525,
13.700,280.186,43.306,6692.916,90389.037,99.695,1.517,7.756,
13.800,284.528,43.676,6688.819,90389.018,101.366,1.516,7.991,
13.900,288.908,44.047,6684.723,90388.999,103.054,1.516,8.232,
14.000,293.325,44.419,6680.626,90388.980,104.758,1.515,8.477,
14.100,297.778,44.792,6676.530,90388.960,106.479,1.514,8.727,
14.200,302.269,45.166,6672.433,90388.941,108.216,1.514,8.982,
14.300,306.796,45.540,6668.337,90388.922,109.971,1.513,9.241,
14.400,311.362,45.915,6664.240,90388.903,111.742,1.513,9.506,
14.500,315.964,46.291,6660.144,90388.883,113.529,1.512,9.776,
14.600,320.604,46.668,6656.047,90388.864,115.334,1.511,10.050,
14.700,325.281,47.046,6651.951,90388.844,117.156,1.511,10.330,
14.800,329.996,47.425,6647.854,90388.824,118.994,1.510,10.616,
14.900,334.749,47.805,6643.758,90388.805,120.850,1.509,10.906,
15.000,339.539,48.185,6639.661,90388.785,122.723,1.509,11.202,
15.100,344.367,48.566,6635.565,90388.765,124.613,1.508,11.502,
15.200,349.233,48.948,6631.468,90388.745,126.520,1.508,11.809,
15.300,354.137,49.331,6627.372,90388.725,128.444,1.507,12.121,
15.400,359.079,49.715,6623.275,90388.705,130.386,1.506,12.438,
15.500,364.060,50.100,6619.179,90388.685,132.345,1.506,12.761,
15.600,369.078,50.485,6615.082,90388.665,134.321,1.505,13.089,
15.700,374.135,50.871,6610.986,90388.645,136.315,1.505,13.423,
15.800,379.230,51.259,6606.889,90388.625,138.326,1.504,13.763,
15.900,384.364,51.647,6602.793,90388.605,140.355,1.503,14.109,
16.000,389.536,52.036,6598.696,90388.585,142.401,1.503,14.460,
16.100,394.747,52.425,6594.600,90388.564,144.465,1.502,14.817,
16.200,399.996,52.816,6590.503,90388.544,146.547,1.501,15.180,
16.300,405.284,53.208,6586.407,90388.524,148.646,1.501,15.550,
16.400,410.612,53.600,6582.310,90388.503,150.763,1.500,15.925,
16.500,415.978,53.993,6578.214,90388.483,152.898,1.500,16.306,
16.600,421.383,54.387,6574.117,90388.462,155.051,1.499,16.693,
16.700,426.827,54.782,6570.021,90388.442,157.222,1.498,17.087,
16.800,432.311,55.178,6565.924,90388.421,159.411,1.498,17.487,
16.900,437.833,55.575,6561.828,90388.401,161.618,1.497,17.893,
17.000,443.395,55.972,6557.731,90388.380,163.842,1.496,18.305,
17.100,448.997,56.371,6553.635,90388.360,166.085,1.496,18.724,
17.200,454.638,56.770,6549.538,90388.339,168.346,1.495,19.150,
17.300,460.318,57.170,6545.442,90388.319,170.625,1.495,19.581,
17.400,466.039,57.571,6541.345,90388.298,172.923,1.494,20.020,
17.500,471.799,57.973,6537.249,90388.278,175.239,1.493,20.465,
17.600,477.599,58.376,6533.153,90388.257,177.572,1.493,20.917,
17.700,483.439,58.780,6529.056,90388.237,179.925,1.492,21.375,
17.800,489.318,59.185,6524.960,90388.216,182.295,1.492,21.841,
17.900,495.238,59.590,6520.863,90388.195,184.685,1.491,22.313,
18.000,501.198,59.996,6516.767,90388.175,187.092,1.490,22.792,
18.100,507.199,60.404,6512.670,90388.154,189.518,1.490,23.278,
18.200,513.239,60.812,6508.574,90388.134,191.963,1.489,23.771,
18.300,519.320,61.221,6504.477,90388.113,194.426,1.488,24.272,
18.400,525.442,61.631,6500.381,90388.093,196.908,1.488,24.779,
18.500,531.604,62.041,6496.284,90388.073,199.409,1.487,25.293,
18.600,537.807,62.453,6492.188,90388.052,201.928,1.487,25.815,
18.700,544.050,62.866,6488.091,90388.032,204.466,1.486,26.344,
18.800,550.335,63.279,6483.995,90388.011,207.022,1.485,26.881,
18.900,556.660,63.693,6479.898,90387.991,209.598,1.485,27.425,
19.000,563.026,64.109,6475.802,90387.971,212.192,1.484,27.977,
19.100,569.433,64.525,6471.705,90387.951,214.805,1.483,28.536,
19.200,575.882,64.942,6467.609,90387.930,217.438,1.483,29.102,
19.300,582.372,65.360,6463.512,90387.910,220.089,1.482,29.677,
19.400,588.903,65.779,6459.416,90387.890,222.759,1.482,30.259,
19.500,595.475,66.198,6455.319,90387.870,225.448,1.481,30.848,
19.600,602.089,66.619,6451.223,90387.850,228.156,1.480,31.446,
19.700,608.744,67.040,6447.126,90387.830,230.883,1.480,32.052,
19.800,615.441,67.463,6443.030,90387.810,233.629,1.479,32.665,
19.900,622.180,67.886,6438.933,90387.791,236.395,1.478,33.287,
20.000,628.961,68.310,6434.837,90387.771,239.179,1.478,33.917,
20.100,635.783,68.736,6430.740,90387.751,241.983,1.477,34.555,
20.200,642.648,69.162,6426.644,90387.732,244.806,1.477,35.201,
20.300,649.554,69.589,6422.547,90387.712,247.648,1.476,35.855,
20.400,656.503,70.016,6418.451,90387.693,250.510,1.475,36.518,
20.500,663.494,70.445,6414.354,90387.674,253.390,1.475,37.189,
20.600,670.527,70.875,6410.258,90387.655,256.291,1.474,37.868,
20.700,677.603,71.305,6406.161,90387.635,259.210,1.474,38.556,
20.800,684.721,71.737,6402.065,90387.616,262.149,1.473,39.253,
20.900,691.881,72.169,6397.968,90387.597,265.107,1.472,39.958,
21.000,699.085,72.603,6393.872,90387.579,268.085,1.472,40.672,
21.100,706.331,73.037,6389.775,90387.560,271.082,1.471,41.395,
21.200,713.620,73.472,6385.679,90387.541,274.099,1.470,42.127,
21.300,720.951,73.908,6381.582,90387.523,277.135,1.470,42.867,
21.400,728.326,74.345,6377.486,90387.505,280.190,1.469,43.617,
21.500,735.744,74.783,6373.389,90387.486,283.266,1.469,44.375,
21.600,743.204,75.222,6369.293,90387.468,286.360,1.468,45.143,
21.700,750.709,75.662,6365.196,90387.450,289.475,1.467,45.919,
21.800,758.256,76.103,6361.100,90387.433,292.609,1.467,46.705,
21.900,765.847,76.544,6357.004,90387.415,295.762,1.466,47.500,
22.000,773.481,76.987,6352.907,90387.397,298.936,1.465,48.305,
22.100,781.159,77.430,6348.811,90387.380,302.128,1.465,49.119,
22.200,788.880,77.875,6344.714,90387.363,305.341,1.464,49.942,
22.300,796.645,78.320,6340.618,90387.346,308.573,1.464,50.775,
22.400,804.454,78.767,6336.521,90387.329,311.825,1.463,51.617,
22.500,812.307,79.214,6332.425,90387.312,315.097,1.462,52.469,
22.600,820.204,79.662,6328.328,90387.296,318.388,1.462,53.331,
22.700,828.145,80.111,6324.232,90387.279,321.699,1.461,54.203,
22.800,836.130,80.561,6320.135,90387.263,325.030,1.461,55.084,
22.900,844.160,81.012,6316.039,90387.247,328.381,1.460,55.976,
23.000,852.233,81.464,6311.942,90387.231,331.751,1.459,56.877,
23.100,860.351,81.917,6307.846,90387.215,335.142,1.459,57.789,
23.200,868.514,82.371,6303.749,90387.200,338.552,1.458,58.710,
23.300,876.721,82.826,6299.653,90387.185,341.982,1.457,59.642,
23.400,884.972,83.281,6295.556,90387.170,345.431,1.457,60.584,
23.500,893.269,83.738,6291.460,90387.155,348.901,1.456,61.536,
23.600,901.610,84.196,6287.363,90387.140,352.390,1.456,62.499,
23.700,909.996,84.654,6283.267,90387.126,355.900,1.455,63.472,
23.800,918.428,85.114,6279.170,90387.112,359.429,1.454,64.455,
23.900,926.904,85.574,6275.074,90387.098,362.978,1.454,65.450,
24.000,935.425,86.036,6270.977,90387.084,366.547,1.453,66.454,
24.100,943.992,86.498,6266.881,90387.070,370.135,1.452,67.470,
